# distance  frequency (bands are separated by blank lines)
# End points of segments: 
#   0.00000000 0.11867140 0.18717950 0.32419570 0.38372110 0.50239250 0.57090060 0.70791690 
0.000000 -1.450959
0.002373 -1.450172
0.004747 -1.447814
0.007120 -1.443888
0.009494 -1.438399
0.011867 -1.431354
0.014241 -1.422764
0.016614 -1.412638
0.018987 -1.400991
0.021361 -1.387839
0.023734 -1.373198
0.026108 -1.357086
0.028481 -1.339525
0.030855 -1.320535
0.033228 -1.300139
0.035601 -1.278362
0.037975 -1.255228
0.040348 -1.230762
0.042722 -1.204989
0.045095 -1.177934
0.047469 -1.149623
0.049842 -1.120079
0.052215 -1.089323
0.054589 -1.057377
0.056962 -1.024257
0.059336 -0.989976
0.061709 -0.954541
0.064083 -0.917955
0.066456 -0.880209
0.068829 -0.841284
0.071203 -0.801144
0.073576 -0.759736
0.075950 -0.716976
0.078323 -0.672742
0.080697 -0.626854
0.083070 -0.579053
0.085443 -0.528946
0.087817 -0.475930
0.090190 -0.419021
0.092564 -0.356470
0.094937 -0.284694
0.097310 -0.193812
0.099684 0.057940
0.102057 0.204158
0.104431 0.278148
0.106804 0.332162
0.109178 0.374677
0.111551 0.408751
0.113924 0.435213
0.116298 0.453051
0.118671 0.459592

0.118671 0.459592
0.120042 0.459701
0.121412 0.460029
0.122782 0.460573
0.124152 0.461332
0.125522 0.462301
0.126892 0.463475
0.128263 0.464850
0.129633 0.466417
0.131003 0.468171
0.132373 0.470101
0.133743 0.472200
0.135113 0.474457
0.136484 0.476861
0.137854 0.479403
0.139224 0.482069
0.140594 0.484847
0.141964 0.487726
0.143334 0.490691
0.144705 0.493730
0.146075 0.496829
0.147445 0.499974
0.148815 0.503150
0.150185 0.506344
0.151555 0.509541
0.152925 0.512726
0.154296 0.515885
0.155666 0.519003
0.157036 0.522064
0.158406 0.525055
0.159776 0.527959
0.161146 0.530762
0.162517 0.533446
0.163887 0.533186
0.165257 0.532346
0.166627 0.531646
0.167997 0.531097
0.169367 0.530708
0.170738 0.530488
0.172108 0.530446
0.173478 0.530590
0.174848 0.530926
0.176218 0.531462
0.177588 0.532205
0.178958 0.533161
0.180329 0.534334
0.181699 0.535731
0.183069 0.537355
0.184439 0.539210
0.185809 0.541301
0.187179 0.543616

0.187179 0.543616
0.189920 0.537758
0.192660 0.529855
0.195401 0.519665
0.198141 0.506901
0.200881 0.491210
0.203621 0.472155
0.206362 0.449158
0.209102 0.421429
0.211842 0.387809
0.214583 0.346443
0.217323 0.293933
0.220063 0.222371
0.222804 0.095547
0.225544 -0.185990
0.228284 -0.285869
0.231025 -0.363645
0.233765 -0.431388
0.236505 -0.493170
0.239246 -0.550904
0.241986 -0.605632
0.244726 -0.657976
0.247467 -0.708319
0.250207 -0.756907
0.252947 -0.803893
0.255688 -0.849369
0.258428 -0.893388
0.261168 -0.935971
0.263909 -0.977119
0.266649 -1.016818
0.269389 -1.055044
0.272130 -1.091764
0.274870 -1.126940
0.277610 -1.160532
0.280351 -1.192497
0.283091 -1.222790
0.285831 -1.251368
0.288571 -1.278188
0.291312 -1.303208
0.294052 -1.326386
0.296793 -1.347686
0.299533 -1.367072
0.302273 -1.384509
0.305013 -1.399969
0.307754 -1.413424
0.310494 -1.424849
0.313234 -1.434226
0.315975 -1.441537
0.318715 -1.446768
0.321455 -1.449910
0.324196 -1.450959

0.324196 -1.450959
0.325386 -1.450684
0.326577 -1.449859
0.327767 -1.448488
0.328958 -1.446571
0.330148 -1.444113
0.331339 -1.441119
0.332529 -1.437594
0.333720 -1.433546
0.334910 -1.428982
0.336101 -1.423912
0.337291 -1.418345
0.338482 -1.412293
0.339672 -1.405767
0.340863 -1.398780
0.342053 -1.391346
0.343244 -1.383479
0.344434 -1.375195
0.345625 -1.366509
0.346815 -1.357439
0.348006 -1.348001
0.349196 -1.338215
0.350387 -1.328098
0.351577 -1.317669
0.352768 -1.306949
0.353958 -1.295957
0.355149 -1.284713
0.356339 -1.273238
0.357530 -1.261553
0.358720 -1.249678
0.359911 -1.237635
0.361102 -1.225445
0.362292 -1.213128
0.363482 -1.200705
0.364673 -1.188197
0.365864 -1.175625
0.367054 -1.163009
0.368244 -1.150369
0.369435 -1.137726
0.370625 -1.125098
0.371816 -1.112506
0.373007 -1.099969
0.374197 -1.087505
0.375388 -1.075133
0.376578 -1.062871
0.377769 -1.050737
0.378959 -1.038749
0.380150 -1.026924
0.381340 -1.015279
0.382531 -1.003830
0.383721 -0.992595

0.383721 -0.992595
0.386095 -0.991940
0.388468 -0.989973
0.390841 -0.986696
0.393215 -0.982107
0.395588 -0.976208
0.397962 -0.968998
0.400335 -0.960477
0.402709 -0.950645
0.405082 -0.939500
0.407455 -0.927041
0.409829 -0.913266
0.412202 -0.898169
0.414576 -0.881746
0.416949 -0.863988
0.419323 -0.844885
0.421696 -0.824420
0.424069 -0.802575
0.426443 -0.779322
0.428816 -0.754627
0.431190 -0.728444
0.433563 -0.700713
0.435937 -0.671356
0.438310 -0.640270
0.440683 -0.607317
0.443057 -0.572310
0.445430 -0.534991
0.447804 -0.494996
0.450177 -0.451784
0.452551 -0.404514
0.454924 -0.351769
0.457297 -0.290840
0.459671 -0.215218
0.462044 -0.095288
0.464418 0.164277
0.466791 0.248478
0.469164 0.308296
0.471538 0.356045
0.473911 0.395951
0.476285 0.430054
0.478658 0.459515
0.481032 0.485059
0.483405 0.507168
0.485779 0.526173
0.488152 0.542311
0.490525 0.555751
0.492899 0.566613
0.495272 0.574984
0.497646 0.580925
0.500019 0.584475
0.502393 0.585655

0.502393 0.585655
0.503763 0.585714
0.505133 0.585891
0.506503 0.586185
0.507873 0.586597
0.509243 0.587129
0.510614 0.587780
0.511984 0.588553
0.513354 0.589447
0.514724 0.590466
0.516094 0.591610
0.517464 0.592881
0.518834 0.594283
0.520205 0.595817
0.521575 0.597486
0.522945 0.599293
0.524315 0.601241
0.525685 0.603335
0.527055 0.605577
0.528426 0.607971
0.529796 0.610522
0.531166 0.613234
0.532536 0.616110
0.533906 0.619155
0.535276 0.622373
0.536647 0.625767
0.538017 0.629341
0.539387 0.633098
0.540757 0.637041
0.542127 0.641172
0.543497 0.645492
0.544868 0.650001
0.546238 0.654699
0.547608 0.659583
0.548978 0.664649
0.550348 0.669891
0.551718 0.675300
0.553088 0.680864
0.554459 0.686564
0.555829 0.692377
0.557199 0.698271
0.558569 0.704199
0.559939 0.710098
0.561310 0.715878
0.562680 0.721416
0.564050 0.726544
0.565420 0.731053
0.566790 0.734719
0.568160 0.737361
0.569531 0.738904
0.570901 0.739396

0.570901 0.739396
0.573641 0.737710
0.576381 0.733276
0.579122 0.726587
0.581862 0.717803
0.584602 0.707031
0.587343 0.694426
0.590083 0.680128
0.592823 0.664196
0.595564 0.646589
0.598304 0.627188
0.601044 0.605810
0.603784 0.582212
0.606525 0.556087
0.609265 0.527044
0.612005 0.494569
0.614746 0.457949
0.617486 0.416133
0.620227 0.367423
0.622967 0.308686
0.625707 0.232634
0.628447 0.107703
0.631188 -0.179293
0.633928 -0.277453
0.636668 -0.350356
0.639409 -0.411444
0.642149 -0.465199
0.644889 -0.513740
0.647630 -0.558249
0.650370 -0.599449
0.653110 -0.637810
0.655851 -0.673653
0.658591 -0.707202
0.661331 -0.738614
0.664072 -0.768005
0.666812 -0.795456
0.669552 -0.821028
0.672293 -0.844762
0.675033 -0.866690
0.677773 -0.886833
0.680514 -0.905206
0.683254 -0.921817
0.685994 -0.936675
0.688735 -0.949782
0.691475 -0.961140
0.694215 -0.970751
0.696956 -0.978614
0.699696 -0.984731
0.702436 -0.989100
0.705176 -0.991721
0.707917 -0.992595


0.000000 -0.800571
0.002373 -0.799653
0.004747 -0.796896
0.007120 -0.792296
0.009494 -0.785842
0.011867 -0.777524
0.014241 -0.767321
0.016614 -0.755210
0.018987 -0.741160
0.021361 -0.725131
0.023734 -0.707069
0.026108 -0.686908
0.028481 -0.664560
0.030855 -0.639912
0.033228 -0.612815
0.035601 -0.583068
0.037975 -0.550397
0.040348 -0.514418
0.042722 -0.474572
0.045095 -0.430003
0.047469 -0.379299
0.049842 -0.319856
0.052215 -0.245798
0.054589 -0.135605
0.056962 0.153564
0.059336 0.255546
0.061709 0.326478
0.064083 0.383731
0.066456 0.432560
0.068829 0.475383
0.071203 0.513538
0.073576 0.547848
0.075950 0.578850
0.078323 0.606902
0.080697 0.632226
0.083070 0.654909
0.085443 0.674836
0.087817 0.691467
0.090190 0.703210
0.092564 0.706878
0.094937 0.701305
0.097310 0.690165
0.099684 0.676633
0.102057 0.662047
0.104431 0.646936
0.106804 0.631564
0.109178 0.616166
0.111551 0.601150
0.113924 0.587416
0.116298 0.576905
0.118671 0.572759

0.118671 0.572759
0.120042 0.572698
0.121412 0.572515
0.122782 0.572211
0.124152 0.571788
0.125522 0.571247
0.126892 0.570591
0.128263 0.569822
0.129633 0.568946
0.131003 0.567966
0.132373 0.566887
0.133743 0.565715
0.135113 0.564455
0.136484 0.563114
0.137854 0.561699
0.139224 0.560217
0.140594 0.558677
0.141964 0.557088
0.143334 0.555458
0.144705 0.553796
0.146075 0.552113
0.147445 0.550419
0.148815 0.548724
0.150185 0.547039
0.151555 0.545375
0.152925 0.543743
0.154296 0.542154
0.155666 0.540620
0.157036 0.539151
0.158406 0.537760
0.159776 0.536457
0.161146 0.535254
0.162517 0.534164
0.163887 0.536006
0.165257 0.538414
0.166627 0.540660
0.167997 0.542728
0.169367 0.544602
0.170738 0.546267
0.172108 0.547706
0.173478 0.548902
0.174848 0.549840
0.176218 0.550502
0.177588 0.550871
0.178958 0.550928
0.180329 0.550656
0.181699 0.550034
0.183069 0.549045
0.184439 0.547666
0.185809 0.545876
0.187179 0.543667

0.187179 0.543667
0.189920 0.549056
0.192660 0.555424
0.195401 0.562781
0.198141 0.571130
0.200881 0.580471
0.203621 0.590798
0.206362 0.602102
0.209102 0.614368
0.211842 0.627580
0.214583 0.641716
0.217323 0.656751
0.220063 0.672652
0.222804 0.689375
0.225544 0.706847
0.228284 0.724903
0.231025 0.742848
0.233765 0.752107
0.236505 0.733117
0.239246 0.706965
0.241986 0.677924
0.244726 0.646172
0.247467 0.611495
0.250207 0.573512
0.252947 0.531666
0.255688 0.485129
0.258428 0.432595
0.261168 0.371783
0.263909 0.298008
0.266649 0.197772
0.269389 -0.103116
0.272130 -0.245340
0.274870 -0.330627
0.277610 -0.397172
0.280351 -0.453018
0.283091 -0.501489
0.285831 -0.544317
0.288571 -0.582523
0.291312 -0.616760
0.294052 -0.647465
0.296793 -0.674944
0.299533 -0.699413
0.302273 -0.721031
0.305013 -0.739915
0.307754 -0.756151
0.310494 -0.769804
0.313234 -0.780920
0.315975 -0.789534
0.318715 -0.795671
0.321455 -0.799347
0.324196 -0.800571

0.324196 -0.800571
0.325386 -0.800556
0.326577 -0.800511
0.327767 -0.800440
0.328958 -0.800345
0.330148 -0.800234
0.331339 -0.800113
0.332529 -0.799991
0.333720 -0.799880
0.334910 -0.799790
0.336101 -0.799736
0.337291 -0.799731
0.338482 -0.799790
0.339672 -0.799931
0.340863 -0.800171
0.342053 -0.800527
0.343244 -0.801018
0.344434 -0.801663
0.345625 -0.802481
0.346815 -0.803492
0.348006 -0.804714
0.349196 -0.806165
0.350387 -0.807865
0.351577 -0.809831
0.352768 -0.812079
0.353958 -0.814626
0.355149 -0.817485
0.356339 -0.820671
0.357530 -0.824196
0.358720 -0.828070
0.359911 -0.832302
0.361102 -0.836900
0.362292 -0.841870
0.363482 -0.847217
0.364673 -0.852942
0.365864 -0.859047
0.367054 -0.865531
0.368244 -0.872393
0.369435 -0.879628
0.370625 -0.887232
0.371816 -0.895197
0.373007 -0.903518
0.374197 -0.912184
0.375388 -0.921186
0.376578 -0.930513
0.377769 -0.940153
0.378959 -0.950095
0.380150 -0.960324
0.381340 -0.970827
0.382531 -0.981589
0.383721 -0.992595

0.383721 -0.992595
0.386095 -0.991940
0.388468 -0.989973
0.390841 -0.986696
0.393215 -0.982107
0.395588 -0.976208
0.397962 -0.968998
0.400335 -0.960477
0.402709 -0.950645
0.405082 -0.939500
0.407455 -0.927041
0.409829 -0.913266
0.412202 -0.898169
0.414576 -0.881746
0.416949 -0.863988
0.419323 -0.844885
0.421696 -0.824420
0.424069 -0.802575
0.426443 -0.779322
0.428816 -0.754627
0.431190 -0.728444
0.433563 -0.700713
0.435937 -0.671356
0.438310 -0.640270
0.440683 -0.607317
0.443057 -0.572310
0.445430 -0.534991
0.447804 -0.494996
0.450177 -0.451784
0.452551 -0.404514
0.454924 -0.351769
0.457297 -0.290840
0.459671 -0.215218
0.462044 -0.095288
0.464418 0.164277
0.466791 0.248478
0.469164 0.308296
0.471538 0.356045
0.473911 0.395951
0.476285 0.430054
0.478658 0.459515
0.481032 0.485059
0.483405 0.507168
0.485779 0.526173
0.488152 0.542311
0.490525 0.555751
0.492899 0.566613
0.495272 0.574984
0.497646 0.580925
0.500019 0.584475
0.502393 0.585655

0.502393 0.585655
0.503763 0.585714
0.505133 0.585891
0.506503 0.586185
0.507873 0.586597
0.509243 0.587129
0.510614 0.587780
0.511984 0.588553
0.513354 0.589447
0.514724 0.590466
0.516094 0.591610
0.517464 0.592881
0.518834 0.594283
0.520205 0.595817
0.521575 0.597486
0.522945 0.599293
0.524315 0.601241
0.525685 0.603335
0.527055 0.605577
0.528426 0.607971
0.529796 0.610522
0.531166 0.613234
0.532536 0.616110
0.533906 0.619155
0.535276 0.622373
0.536647 0.625767
0.538017 0.629341
0.539387 0.633098
0.540757 0.637041
0.542127 0.641172
0.543497 0.645492
0.544868 0.650001
0.546238 0.654699
0.547608 0.659583
0.548978 0.664649
0.550348 0.669891
0.551718 0.675300
0.553088 0.680864
0.554459 0.686564
0.555829 0.692377
0.557199 0.698271
0.558569 0.704199
0.559939 0.710098
0.561310 0.715878
0.562680 0.721416
0.564050 0.726544
0.565420 0.731053
0.566790 0.734719
0.568160 0.737361
0.569531 0.738904
0.570901 0.739396

0.570901 0.739396
0.573641 0.737710
0.576381 0.733276
0.579122 0.726587
0.581862 0.717803
0.584602 0.707031
0.587343 0.694426
0.590083 0.680128
0.592823 0.664196
0.595564 0.646589
0.598304 0.627188
0.601044 0.605810
0.603784 0.582212
0.606525 0.556087
0.609265 0.527044
0.612005 0.494569
0.614746 0.457949
0.617486 0.416133
0.620227 0.367423
0.622967 0.308686
0.625707 0.232634
0.628447 0.107703
0.631188 -0.179293
0.633928 -0.277453
0.636668 -0.350356
0.639409 -0.411444
0.642149 -0.465199
0.644889 -0.513740
0.647630 -0.558249
0.650370 -0.599449
0.653110 -0.637810
0.655851 -0.673653
0.658591 -0.707202
0.661331 -0.738614
0.664072 -0.768005
0.666812 -0.795456
0.669552 -0.821028
0.672293 -0.844762
0.675033 -0.866690
0.677773 -0.886833
0.680514 -0.905206
0.683254 -0.921817
0.685994 -0.936675
0.688735 -0.949782
0.691475 -0.961140
0.694215 -0.970751
0.696956 -0.978614
0.699696 -0.984731
0.702436 -0.989100
0.705176 -0.991721
0.707917 -0.992595


0.000000 -0.005135
0.002373 0.029248
0.004747 0.058967
0.007120 0.088457
0.009494 0.117751
0.011867 0.146812
0.014241 0.175593
0.016614 0.204045
0.018987 0.232118
0.021361 0.259765
0.023734 0.286938
0.026108 0.313593
0.028481 0.339689
0.030855 0.365183
0.033228 0.390039
0.035601 0.414220
0.037975 0.437692
0.040348 0.460424
0.042722 0.482387
0.045095 0.503552
0.047469 0.523894
0.049842 0.543388
0.052215 0.562010
0.054589 0.579736
0.056962 0.596545
0.059336 0.612415
0.061709 0.627322
0.064083 0.641244
0.066456 0.654159
0.068829 0.666046
0.071203 0.676883
0.073576 0.686654
0.075950 0.695346
0.078323 0.702956
0.080697 0.709488
0.083070 0.714962
0.085443 0.719414
0.087817 0.722899
0.090190 0.725490
0.092564 0.727275
0.094937 0.728361
0.097310 0.728862
0.099684 0.728899
0.102057 0.728594
0.104431 0.728063
0.106804 0.727415
0.109178 0.726746
0.111551 0.726137
0.113924 0.725655
0.116298 0.725346
0.118671 0.725240

0.118671 0.725240
0.120042 0.725582
0.121412 0.726606
0.122782 0.728305
0.124152 0.730670
0.125522 0.733685
0.126892 0.737333
0.128263 0.741592
0.129633 0.746438
0.131003 0.751841
0.132373 0.757771
0.133743 0.764195
0.135113 0.771077
0.136484 0.778379
0.137854 0.786062
0.139224 0.794085
0.140594 0.802407
0.141964 0.810984
0.143334 0.819775
0.144705 0.828734
0.146075 0.837817
0.147445 0.846982
0.148815 0.845484
0.150185 0.835346
0.151555 0.825194
0.152925 0.815068
0.154296 0.805002
0.155666 0.795033
0.157036 0.785197
0.158406 0.775528
0.159776 0.766060
0.161146 0.756826
0.162517 0.747859
0.163887 0.739191
0.165257 0.730852
0.166627 0.722871
0.167997 0.715277
0.169367 0.708097
0.170738 0.701356
0.172108 0.695078
0.173478 0.689284
0.174848 0.683995
0.176218 0.679228
0.177588 0.674999
0.178958 0.671318
0.180329 0.668198
0.181699 0.665643
0.183069 0.663659
0.184439 0.662246
0.185809 0.661401
0.187179 0.661120

0.187179 0.661120
0.189920 0.662224
0.192660 0.665437
0.195401 0.670607
0.198141 0.677541
0.200881 0.686014
0.203621 0.695770
0.206362 0.706534
0.209102 0.718014
0.211842 0.729909
0.214583 0.741911
0.217323 0.753712
0.220063 0.765006
0.222804 0.775494
0.225544 0.784887
0.228284 0.792912
0.231025 0.785998
0.233765 0.773628
0.236505 0.788295
0.239246 0.806673
0.241986 0.804637
0.244726 0.800184
0.247467 0.793271
0.250207 0.783895
0.252947 0.772086
0.255688 0.757906
0.258428 0.741444
0.261168 0.722806
0.263909 0.702116
0.266649 0.679507
0.269389 0.655119
0.272130 0.629096
0.274870 0.601584
0.277610 0.572731
0.280351 0.542681
0.283091 0.511579
0.285831 0.479568
0.288571 0.446788
0.291312 0.413374
0.294052 0.379458
0.296793 0.345166
0.299533 0.310614
0.302273 0.275908
0.305013 0.241140
0.307754 0.206385
0.310494 0.171700
0.313234 0.137118
0.315975 0.102645
0.318715 0.068256
0.321455 0.033834
0.324196 -0.005135

0.324196 -0.005135
0.325386 0.014975
0.326577 0.031240
0.327767 0.047204
0.328958 0.063087
0.330148 0.078930
0.331339 0.094745
0.332529 0.110534
0.333720 0.126297
0.334910 0.142033
0.336101 0.157740
0.337291 0.173416
0.338482 0.189059
0.339672 0.204666
0.340863 0.220234
0.342053 0.235760
0.343244 0.251243
0.344434 0.266679
0.345625 0.282066
0.346815 0.297402
0.348006 0.312683
0.349196 0.327907
0.350387 0.343071
0.351577 0.358174
0.352768 0.373212
0.353958 0.388183
0.355149 0.403085
0.356339 0.417916
0.357530 0.432672
0.358720 0.447353
0.359911 0.461955
0.361102 0.476476
0.362292 0.490915
0.363482 0.505268
0.364673 0.519534
0.365864 0.533711
0.367054 0.547797
0.368244 0.561790
0.369435 0.575687
0.370625 0.589487
0.371816 0.603188
0.373007 0.616787
0.374197 0.630283
0.375388 0.643674
0.376578 0.656958
0.377769 0.670133
0.378959 0.683197
0.380150 0.696148
0.381340 0.708984
0.382531 0.721704
0.383721 0.734304

0.383721 0.734304
0.386095 0.734580
0.388468 0.735400
0.390841 0.736757
0.393215 0.738635
0.395588 0.741015
0.397962 0.743870
0.400335 0.747171
0.402709 0.750884
0.405082 0.754971
0.407455 0.759390
0.409829 0.764099
0.412202 0.769053
0.414576 0.774206
0.416949 0.779512
0.419323 0.784924
0.421696 0.790398
0.424069 0.795888
0.426443 0.801353
0.428816 0.806751
0.431190 0.812044
0.433563 0.817197
0.435937 0.822178
0.438310 0.826957
0.440683 0.831508
0.443057 0.835809
0.445430 0.839843
0.447804 0.843594
0.450177 0.847052
0.452551 0.850210
0.454924 0.853067
0.457297 0.855622
0.459671 0.857880
0.462044 0.859851
0.464418 0.861545
0.466791 0.862977
0.469164 0.864165
0.471538 0.865128
0.473911 0.865888
0.476285 0.866467
0.478658 0.866889
0.481032 0.867179
0.483405 0.867360
0.485779 0.867456
0.488152 0.867489
0.490525 0.867479
0.492899 0.867444
0.495272 0.867401
0.497646 0.867361
0.500019 0.867333
0.502393 0.867323

0.502393 0.867323
0.503763 0.867078
0.505133 0.866354
0.506503 0.865183
0.507873 0.863614
0.509243 0.861701
0.510614 0.859501
0.511984 0.857071
0.513354 0.854459
0.514724 0.851710
0.516094 0.848863
0.517464 0.845951
0.518834 0.843001
0.520205 0.840039
0.521575 0.837084
0.522945 0.834154
0.524315 0.831263
0.525685 0.828424
0.527055 0.825646
0.528426 0.822938
0.529796 0.820306
0.531166 0.817755
0.532536 0.815289
0.533906 0.812910
0.535276 0.810618
0.536647 0.808415
0.538017 0.806299
0.539387 0.804268
0.540757 0.802320
0.542127 0.800453
0.543497 0.798662
0.544868 0.796946
0.546238 0.795299
0.547608 0.793721
0.548978 0.792207
0.550348 0.790757
0.551718 0.789371
0.553088 0.788053
0.554459 0.786809
0.555829 0.785652
0.557199 0.784602
0.558569 0.783691
0.559939 0.782968
0.561310 0.782506
0.562680 0.782411
0.564050 0.782831
0.565420 0.783954
0.566790 0.785978
0.568160 0.789050
0.569531 0.793164
0.570901 0.797088

0.570901 0.797088
0.573641 0.787260
0.576381 0.776619
0.579122 0.766751
0.581862 0.757891
0.584602 0.750093
0.587343 0.743249
0.590083 0.737194
0.592823 0.731800
0.595564 0.726996
0.598304 0.722755
0.601044 0.719072
0.603784 0.715952
0.606525 0.713401
0.609265 0.711419
0.612005 0.710003
0.614746 0.709140
0.617486 0.708815
0.620227 0.709006
0.622967 0.709686
0.625707 0.710825
0.628447 0.712388
0.631188 0.714338
0.633928 0.716634
0.636668 0.719233
0.639409 0.722088
0.642149 0.725150
0.644889 0.728365
0.647630 0.731679
0.650370 0.735029
0.653110 0.738353
0.655851 0.741580
0.658591 0.744639
0.661331 0.747452
0.664072 0.749939
0.666812 0.752018
0.669552 0.753609
0.672293 0.754638
0.675033 0.755044
0.677773 0.754788
0.680514 0.753866
0.683254 0.752314
0.685994 0.750220
0.688735 0.747721
0.691475 0.744994
0.694215 0.742238
0.696956 0.739658
0.699696 0.737438
0.702436 0.735737
0.705176 0.734669
0.707917 0.734304


0.000000 -0.004329
0.002373 0.032045
0.004747 0.063779
0.007120 0.095515
0.009494 0.127179
0.011867 0.158731
0.014241 0.190139
0.016614 0.221373
0.018987 0.252406
